Frame,Force
75,391.1479945
76,403.2503458
77,416.735823
78,428.8381743
79,444.7441217
80,462.033195
81,481.3969571
82,504.9100968
83,532.9183956
84,558.8520055
85,568.5338866
86,545.0207469
87,505.2558783
88,470.3319502
89,445.7814661
90,427.8008299
91,412.9322268
92,401.8672199
93,392.1853389
94,384.2323651
95,377.3167358
96,371.0926694
97,366.2517289
98,359.6818811
99,355.186722
100,352.4204703
